 ir   radius   density
           1  0.000000000000000E+000  8.271332619229411E-014
           2   69598000000.0000       8.271332619229411E-014
           3   91590532653.0612       8.271332619229411E-014
           4   183181065306.122       8.271332619229411E-014
           5   274771597959.184       8.271332619229411E-014
           6   366362130612.245       8.271332619229411E-014
           7   457952663265.306       8.271332619229411E-014
           8   549543195918.367       8.271332619229411E-014
           9   641133728571.428       8.271332619229411E-014
          10   732724261224.490       8.271332619229411E-014
          11   824314793877.551       8.271332619229411E-014
          12   915905326530.612       8.271332619229411E-014
          13   1007495859183.67       8.271332619229411E-014
          14   1099086391836.73       8.271332619229411E-014
          15   1190676924489.80       8.271332619229411E-014
          16   1282267457142.86       8.271332619229411E-014
          17   1373857989795.92       8.271332619229411E-014
          18   1465448522448.98       8.271332619229411E-014
          19   1557039055102.04       8.271332619229411E-014
          20   1648629587755.10       8.271332619229411E-014
          21   1740220120408.16       8.271332619229411E-014
          22   1831810653061.22       8.271332619229411E-014
          23   1923401185714.29       8.271332619229411E-014
          24   2014991718367.35       8.271332619229411E-014
          25   2106582251020.41       8.271332619229411E-014
          26   2198172783673.47       8.271332619229411E-014
          27   2289763316326.53       8.271332619229411E-014
          28   2381353848979.59       8.271332619229411E-014
          29   2472944381632.65       8.271332619229411E-014
          30   2564534914285.71       8.271332619229411E-014
          31   2656125446938.78       8.271332619229411E-014
          32   2747715979591.84       8.271332619229411E-014
          33   2839306512244.90       8.271332619229411E-014
          34   2930897044897.96       8.271332619229411E-014
          35   3022487577551.02       0.000000000000000E+000
          36   3114078110204.08       0.000000000000000E+000
          37   3205668642857.14       0.000000000000000E+000
          38   3297259175510.20       0.000000000000000E+000
          39   3388849708163.27       0.000000000000000E+000
          40   3480440240816.33       0.000000000000000E+000
          41   3572030773469.39       0.000000000000000E+000
          42   3663621306122.45       0.000000000000000E+000
          43   3755211838775.51       0.000000000000000E+000
          44   3846802371428.57       0.000000000000000E+000
          45   3938392904081.63       0.000000000000000E+000
          46   4029983436734.69       0.000000000000000E+000
          47   4121573969387.75       0.000000000000000E+000
          48   4213164502040.82       0.000000000000000E+000
          49   4304755034693.88       0.000000000000000E+000
          50   4396345567346.94       0.000000000000000E+000
          51   4487936100000.00       0.000000000000000E+000
          52   4579526632653.06       0.000000000000000E+000
          53   4671117165306.12       0.000000000000000E+000
          54   4762707697959.18       0.000000000000000E+000
          55   4854298230612.24       0.000000000000000E+000
          56   4945888763265.31       0.000000000000000E+000
          57   5037479295918.37       0.000000000000000E+000
          58   5129069828571.43       0.000000000000000E+000
          59   5220660361224.49       0.000000000000000E+000
          60   5312250893877.55       0.000000000000000E+000
          61   5403841426530.61       0.000000000000000E+000
          62   5495431959183.67       0.000000000000000E+000
          63   5587022491836.73       0.000000000000000E+000
          64   5678613024489.80       0.000000000000000E+000
          65   5770203557142.86       0.000000000000000E+000
          66   5861794089795.92       0.000000000000000E+000
          67   5953384622448.98       0.000000000000000E+000
          68   6044975155102.04       0.000000000000000E+000
          69   6136565687755.10       0.000000000000000E+000
          70   6228156220408.16       0.000000000000000E+000
          71   6319746753061.22       0.000000000000000E+000
          72   6411337285714.29       0.000000000000000E+000
          73   6502927818367.35       0.000000000000000E+000
          74   6594518351020.41       0.000000000000000E+000
          75   6686108883673.47       0.000000000000000E+000
          76   6777699416326.53       0.000000000000000E+000
          77   6869289948979.59       0.000000000000000E+000
          78   6960880481632.65       0.000000000000000E+000
          79   7052471014285.71       0.000000000000000E+000
          80   7144061546938.78       0.000000000000000E+000
          81   7235652079591.84       0.000000000000000E+000
          82   7327242612244.90       0.000000000000000E+000
          83   7418833144897.96       0.000000000000000E+000
          84   7510423677551.02       0.000000000000000E+000
          85   7602014210204.08       0.000000000000000E+000
          86   7693604742857.14       0.000000000000000E+000
          87   7785195275510.20       0.000000000000000E+000
          88   7876785808163.26       0.000000000000000E+000
          89   7968376340816.33       0.000000000000000E+000
          90   8059966873469.39       0.000000000000000E+000
          91   8151557406122.45       0.000000000000000E+000
          92   8243147938775.51       0.000000000000000E+000
          93   8334738471428.57       0.000000000000000E+000
          94   8426329004081.63       0.000000000000000E+000
          95   8517919536734.69       0.000000000000000E+000
          96   8609510069387.75       0.000000000000000E+000
          97   8701100602040.82       0.000000000000000E+000
          98   8792691134693.88       0.000000000000000E+000
          99   8884281667346.94       0.000000000000000E+000
